<Actel_Data_File>
    <format name="NVM File" version="01.00.00"/>
    <header>
        <die>
            M2S150
        </die>
        <family>
            SmartFusion2
        </family>
        <module>
            
        </module>
        <package>
            1152 FC
        </package>
        <version>
            11.8.2.4
        </version>
    </header>
    <nvm>
        <region name="RISCV_BOOT" address="0x000000" retrieveAddressFromFile="false" size="1856" format="HEX" type="Data Storage" wordSize="8" numberWords="1856" memFile="C:\Users\hbreslin\Desktop\Project Workspace\Github\M2S150-Creative-Board\Modify_The_FPGA_Design\MIV_RV32IMA_AHB_BaseDesign\hex\while_loop.hex" memType="INTELHEX" memFileTimeStamp="" clientType="public" program="true">
            6f00c0006f0000006f00c002970200009382820273905230735000307350
            4030970100209381017e17110020130181166f000013130101f823201100
            23222100232431002326410023285100232a6100232c7100232e81002320
            91022322a1022324b1022326c1022328d102232ae102232cf102232e0103
            2320110523222105232431052326410523285105232a6105232c7105232e
            8105232091072322a1072324b1072326c1072328d107232ae107232cf107
            f3221034232e510673252034f325103413060100ef00c02a73101534b722
            00009382028073a002308320010003214100832181000322c10083220101
            03234101832381010324c1018324010203254102832581020326c1028326
            010303274103832781030328c103832801040329410483298104032ac104
            832a0105032b4105832b8105032cc105832c0106032d4106832d8106032e
            c106832e0107032f4107832f81071301010873002030b7070060130101fe
            938707642322f10037070060b7070080232e110023240100232601009387
            0700130707659386018163f6f604b7070080370700609387070113070766
            9386018f63f4f6049387018f138701906378f70493870190138701996378
            f7049305410013051000ef00c03e8320c101130101026780000003260700
            938747001307470023aec7fe6ff05ffa03260700938747001307470023ae
            c7fe6ff09ffa23a00700938747006ff09ffa23a00700938747006ff09ffa
            000000006780000000000000130101ff232481002326110013040008f337
            4430ef00801db7c7004403a887ff83a8c7fff32740f19386018f03a70600
            83a546003307e80033350701130607003717000013070780b387e7009397
            370037070044b307f700b385b800b306b50023a0c70023a2d70073244430
            8320c10003248100130101016780000000000000130101ff232611002324
            810023229100f32740f193870720370400409397c700b307f40083a44700
            b70700809387070113972400b387e70083a70700e7800700f32740f19387
            07209397c700b307f40023a2970093071000631cf502f32740f193975700
            13d75400b387e700939727003304f400b72700003304f400832704003315
            95001345f5ff3375f5002320a4008320c100032481008324410013010101
            6780000000000000130101ff23261100ef00800a8320c100b707004423a0
            0700130101016780000000000000130101ff232481002326110023229100
            13040500635c0504b707008093c7f7ffb377f5001307b000938405006390
            e702eff05ff08320c1000324810013850400832441001301010167800000
            130770006396e700eff01fe66ff0dffd130730006396e700eff09ff76ff0
            dffcb7050060130650009385856413051000ef00001d13051400ef00401a
            00000000130101ff1305a00023261100ef00001900000000678000000000
            000013050000678000000000000013050000678000000000000013050000
            678000000000000013050000678000000000000013050000678000000000
            000013050000678000000000000013050000678000000000000013050000
            678000000000000013050000678000000000000013050000678000000000
            000013050000678000000000000013050000678000000000000013050000
            678000000000000013050000678000000000000013050000678000000000
            000013050000678000000000000013050000678000000000000013050000
            678000000000000013050000678000000000000013050000678000000000
            000013050000678000000000000013050000678000000000000013050000
            678000000000000013050000678000000000000013050000678000000000
            000013050000678000000000000013050000678000000000000013050000
            678000000000000013050000678000000000000013050000678000000000
            00001305000067800000000000001305000067800000000000006f000000
            000000001307900023a0e1901305f0ff67800000000000006f0000000000
            000097070020938707a493060600138605009305050003a507006f008000
            00000000130101ff23248100130405001385050093050600138606009707
            002023a407b023261100eff01ffa9307f0ff631cf50097070020938707af
            83a70700638407002320f4008320c1000324810013010101678000000000
            0000000000000000000068656c6c6f000000747261700a00000090000080
            0000000000000000000000001c0400602804006034040060400400604c04
            00605804006064040060700400607c0400608804006094040060a0040060
            ac040060b8040060c4040060d0040060dc040060e8040060f40400600005
            00600c0500601805006024050060300500603c0500604805006054050060
            600500606c05006078050060840500609005006000000000000000000000
            000000000000000000000000000000000000000000000000000000000000
            000000000000000000000000000000000000000000000000000000000000
            0000000000000000000000000000000000000000000000000000
            <crc>
                eff5
            </crc>
        </region>
        <region name="M3_BOOT" address="0x078000" retrieveAddressFromFile="false" size="3456" format="HEX" type="Data Storage" wordSize="8" numberWords="3456" memFile="C:\Users\hbreslin\Desktop\Project Workspace\Github\M2S150-Creative-Board\Modify_The_FPGA_Design\MIV_RV32IMA_AHB_BaseDesign\hex\M3-Disable_M2S150-Adv-Dev-Kit_Enable-DDR.hex" memType="INTELHEX" memFileTimeStamp="" clientType="public" program="true">
            <read_protect/>
            00000120910100007f030000810300008303000085030000870300000000
            0000000000000000000000000000890300008b030000000000008d030000
            8f03000091030000930300009503000097030000990300009b0300009d03
            00009f030000a1030000a3030000a5030000a7030000a9030000ab030000
            ad030000af030000b1030000b3030000b5030000b7030000b9030000bb03
            0000bd030000bf030000c1030000c3030000c5030000c7030000c9030000
            cb030000cd030000cf030000d1030000d3030000d5030000d7030000d903
            0000db030000dd030000df030000e1030000e3030000e5030000e7030000
            e9030000eb030000ed030000ef030000f1030000f3030000f5030000f703
            0000f9030000fb030000fd030000ff030000010400000304000005040000
            07040000090400000b0400000d0400000f04000011040000130400001504
            000017040000190400001b0400001d0400001f0400002104000023040000
            2504000027040000290400002b0400002d0400002f040000310400003304
            000000000000000000004ff0000bdff8be020068dff8b612096801f00301
            00f01c00142801d14bf0020b002901d04bf0010bbbf1000f05d0a748a749
            dff8722200f09ff8a64880470bf0020abaf1000f0cd0dff86e02dff86e12
            02680b680fb44ff000024ff0ff0302600b609d4800220123022808d1dff8
            3e120a60dff842120a60dff836120b60012808d1dff82e120a60dff82a12
            0a60dff81e120b609148002809d191489149924a00f032f891489249924a
            00f02df892489249934a00f028f892489349dff8e62100f05af8bbf1000f
            12d090489049dff8da2100f051f80bf0020abaf1000f07d00fbc02600b60
            00bfaff30080aff30080dff820020ff2030e00474ff000004ff00001dff8
            14f2fee72de9f841884225d0b2eb010200d5fee740ea010313f0030302d0
            00f01df819e04ff0000390461211f7d09a421cbff0c8f0c103f10103f8d1
            08f00f08b8f1000f08d004780c7000f1010001f10101b8f10108f6d1bde8
            f88108b54ff0000303780b7000f1010001f10101013af7d108bd884237d0
            00f00306002e14d04ff00405a5eb06044ff0080707fb06f8914669fa08f9
            002c07d080f8009069fa07f900f10100013cf5e74ff000060f46091a8846
            0911914614461546b14206d018bfa0e8340206f10106b142f8d108f00f08
            b8f1000f07d002704fea322200f10100b8f10108f4e77047fee7fee7fee7
            fee7fee7fee7fee7fee7fee7fee7fee7fee7fee7fee7fee7fee7fee7fee7
            fee7fee7fee7fee7fee7fee7fee7fee7fee7fee7fee7fee7fee7fee7fee7
            fee7fee7fee7fee7fee7fee7fee7fee7fee7fee7fee7fee7fee7fee7fee7
            fee7fee7fee7fee7fee7fee7fee7fee7fee7fee7fee7fee7fee7fee7fee7
            fee7fee7fee7fee7fee7fee7fee7fee7fee7fee7fee7fee7fee7fee7fee7
            fee7fee7fee7fee7fee7fee7fee7fee7fee7fee7fee7fee7fee770470000
            0000a2a2a2a2008003400880034010800340308003403480034038800340
            18080240000000f0002000000120ad040000000000000100000000000060
            0000000090010000c0060060c00600005009000050090060000000203004
            002030040020500400205004002000f00020bd070000790700004ff60202
            38b53a4bd3f84c11914262d0384a536943f400735361354b996861b1fff7
            b2ff324a936c23f480339364324b1a6842f003021a6049e0304b30481b68
            30f8112043f82120013139292c4af7d102f1700003f5077103f5487430f8
            025f41f8045ba142f9d1b2f8f410c3f80014b2f8f610c3f80414b2f8f810
            c3f80814b2f8fa10c3f80c14b2f8fc10c3f81014b2f8fe10c3f81414b2f8
            0011c3f81814b2f80211c3f81c14b2f80411c3f84014b2f80611b2f80821
            c3f84414c3f8482401221a60d3f8e420002afbd0a8e75a68d207fcd538bd
            d3f8982042f48072c3f89820d3f8982022f08062c3f898208fe700800340
            00ed00e000200240bc060000b005000000000000de270f03020000000101
            990900003333ffff888888080100424208002805000000000000e00c8600
            350264000f0178013300c719100000000033000000000604000000024000
            120002000040f8800700f880070000020004000005000300400000000000
            000000000903010000000000000080000000000003000000000000000000
            00000b000000000000000000800004200001080000000000000000000000
            010000000000000000000000504001051450000000000000000000000000
            000000000000000000000000000050000105105000000000000000000000
            000043000000030001000100000000000000010000000000000000000000
            00000000000000000000000000000008024010b5054c237833b9044b13b1
            0448aff300800123237010bd300400200000000020090000084b10b51bb1
            08490848aff300800848036803b910bd074b002bfbd0bde81040184700bf
            0000000034040020200900000000002000000000144b10b59a6c144c42f4
            80129a649a6c012042f0f0729a6400221357013203f01f015b099b0003f1
            604300fa01f103f56143202ac3f88010c3f88011edd1054b9a6c22f0f072
            9a649a6c22f480129a6410bd00bf00800340f808000007b5fff7cfff0d4b
            4ff05532c3f8882072b630bf4ff0aa32c3f88820084a1168c9090191019a
            1ab1019a013a0192f9e7d3f88820d243c3f88820f2e70030014004000020
            70b50f4e0f4d761bb61018bf002405d0013455f8043b9847a642f9d10a4e
            0b4d00f0a0f8761bb61018bf002406d0013455f8043b9847a642f9d170bd
            70bd00bf38090000380900004009000038090000024b13b1024800f005b8
            7047000000002d080000002301461a46184600f014b838b5074d074c2c1b
            a41005d0013c55f8043d9847002cf9d1bde8384000f070b8440900004009
            00002de9f047254c064625688846d5f8484192469946c4b360681f2817dc
            411c76b104eb8003c3f888a0d4f88851012282401543022ec4f88851c3f8
            08911ed0831c6160002044f82380bde8f087144b03b34ff4c870aff30080
            0446d0b1d5f84831002784e888003846c5f848410121c4f88871c4f88c71
            002ee1d0d1e7d4f88c311a43c4f88c21dae705f5a674c5f84841c1e74ff0
            ff30bde8f08700bf1c0900000000000032333435363738393a3b3c3d3e3f
            404142434445464748494a4b4c4d4e4f50514300000008000020f8b500bf
            f8bc08bc9e467047f8b500bff8bc08bc9e4670470d080000e5060000c106
            00000000000000000000000000000000000000e1f50500000000f4020020
            5c030020c403002000000000000000000000000000000000000000000000
            000000000000000000000000000018090000000000000000000000000000
            000000000000000000000000000000000000000000000000000000000000
            000000000000000000000000000000000000000000000000000000000000
            000000000000000000000000000000000000000000000000000000000000
            0000000000000000000001000000000000000e33cdab34126de6ecde0500
            0b0000000000000000000000000000000000000000000000000000000000
            000000000000000000000000000000000000000000000000000000000000
            000000000000000000000000000000000000000000000000000000000000
            000000000000000000000000000000000000000000000000000000000000
            000000000000000000000000000000000000000000000000000000000000
            000000000000000000000000000000000000000000000000000000000000
            000000000000000000000000000000000000000000000000000000000000
            000000000000000000000000000000000000000000000000000000000000
            000000000000000000000000000000000000000000000000000000000000
            000000000000000000000000000000000000000000000000000000000000
            000000000000000000000000000000000000000000000000000000000000
            000000000000000000000000000000000000000000000000000000000000
            000000000000000000000000000000000000000000000000000000000000
            000000000000000000000000000000000000000000000000000000000000
            000000000000000000000000000000000000000000000000000000000000
            000000000000000000000000000000000000000000000000000000000000
            000000000000000000000000000000000000000000000000000000000000
            000000000000000000000000000000000000000000000000000000000000
            000000000000000000000000000000000000000000000000000000000000
            000000000000000000000000000000000000000000000000000000000000
            000000000000000000000000000000000000000000000000000000000000
            000000000000000000000000000000000000000000000000000000000000
            000000000000000000000000000000000000000000000000000000000000
            000000000000000000000000000000000000000000000000000000000000
            000000000000000000000000000000000000000000000000000000000000
            000000000000000000000000000000000000000000000000000000000000
            000000000000000000000000000000000000000000000000000000000000
            000000000000000000000000000000000000000000000000000000000000
            000000000000000000000000000000000000000000000000000000000000
            000000000000
            <crc>
                5899
            </crc>
        </region>
    </nvm>
</Actel_Data_File>
